TITLE;TDBC_NaOH_c0_1mmK_em
DATA TYPE;FLUORESCENCE SPECTRUM
ORIGIN;JASCO
OWNER;
DATE;14/03/18
TIME;14:57:06
SPECTROMETER/DATA SYSTEM;
LOCALE;1031
RESOLUTION;
DELTAX;1
XUNITS;NANOMETERS
YUNITS;INTENSITY
FIRSTX;  570,0000
LASTX;  900,0000
NPOINTS;     331
FIRSTY;   617,04901
MAXY; 13833,46875
MINY;  -232,90608
XYDATA
570,0000;617,049
571,0000;717,405
572,0000;836,506
573,0000;977,635
574,0000;1145,85
575,0000;1342,29
576,0000;1572,51
577,0000;1840,24
578,0000;2147,08
579,0000;2500,57
580,0000;2908,32
581,0000;3372
582,0000;3892,09
583,0000;4488,77
584,0000;5163,8
585,0000;5908,09
586,0000;6731,84
587,0000;7624,54
588,0000;8582,22
589,0000;9572,64
590,0000;10553,2
591,0000;11484,4
592,0000;12301,6
593,0000;12960,4
594,0000;13439,8
595,0000;13731,3
596,0000;13833,5
597,0000;13740,3
598,0000;13461,2
599,0000;13015,5
600,0000;12408,7
601,0000;11676,9
602,0000;10917,4
603,0000;10164,7
604,0000;9448,15
605,0000;8778,54
606,0000;8157,26
607,0000;7584,47
608,0000;7062,52
609,0000;6562,64
610,0000;6086,37
611,0000;5638,81
612,0000;5226,12
613,0000;4860,28
614,0000;4548,5
615,0000;4283,75
616,0000;4063,29
617,0000;3877,54
618,0000;3719,44
619,0000;3583,62
620,0000;3463,19
621,0000;3351,99
622,0000;3244,05
623,0000;3147,45
624,0000;3060,71
625,0000;2976,31
626,0000;2894,97
627,0000;2804,28
628,0000;2702,17
629,0000;2583,12
630,0000;2442,33
631,0000;2285,61
632,0000;2128,64
633,0000;1969,81
634,0000;1825,8
635,0000;1698,04
636,0000;1587,2
637,0000;1487,86
638,0000;1395,31
639,0000;1303,61
640,0000;1212,82
641,0000;1121,84
642,0000;1029,58
643,0000;938,519
644,0000;849,676
645,0000;764,548
646,0000;683,596
647,0000;608,85
648,0000;538,864
649,0000;477,379
650,0000;421,582
651,0000;375,902
652,0000;338,611
653,0000;308,38
654,0000;284,808
655,0000;265,192
656,0000;249,091
657,0000;234,171
658,0000;221,043
659,0000;209,241
660,0000;198,507
661,0000;188,409
662,0000;179,12
663,0000;170,977
664,0000;164,176
665,0000;157,067
666,0000;151,111
667,0000;146,894
668,0000;142,989
669,0000;138,455
670,0000;135,292
671,0000;132,4
672,0000;128,535
673,0000;125,903
674,0000;122,879
675,0000;120,355
676,0000;117,852
677,0000;115,768
678,0000;112,84
679,0000;110,456
680,0000;107,474
681,0000;105,127
682,0000;102,151
683,0000;99,8896
684,0000;97,5194
685,0000;94,3649
686,0000;91,9507
687,0000;89,2266
688,0000;87,0992
689,0000;84,3463
690,0000;81,6306
691,0000;79,0452
692,0000;77,2064
693,0000;74,5616
694,0000;71,9943
695,0000;69,3493
696,0000;66,8519
697,0000;64,6174
698,0000;62,2145
699,0000;59,7585
700,0000;57,9125
701,0000;55,6261
702,0000;53,4755
703,0000;51,5386
704,0000;49,2496
705,0000;47,3309
706,0000;45,6784
707,0000;43,6139
708,0000;41,7199
709,0000;40,2186
710,0000;38,3671
711,0000;36,8764
712,0000;35,0614
713,0000;33,4324
714,0000;32,2192
715,0000;30,34
716,0000;28,4767
717,0000;27,2075
718,0000;25,2477
719,0000;23,557
720,0000;22,2044
721,0000;20,4538
722,0000;19,8976
723,0000;18,1996
724,0000;16,7193
725,0000;15,7169
726,0000;14,2188
727,0000;13,7088
728,0000;12,6341
729,0000;11,9645
730,0000;11,1999
731,0000;10,8785
732,0000;10,2257
733,0000;9,58761
734,0000;8,9625
735,0000;9,1493
736,0000;8,54508
737,0000;7,95309
738,0000;8,1356
739,0000;7,73453
740,0000;6,94211
741,0000;6,80432
742,0000;6,46716
743,0000;6,23371
744,0000;6,02348
745,0000;6,24066
746,0000;6,2648
747,0000;5,82021
748,0000;6,21121
749,0000;5,63318
750,0000;5,41938
751,0000;5,76517
752,0000;5,92939
753,0000;5,6865
754,0000;5,54286
755,0000;5,40398
756,0000;5,00553
757,0000;5,22815
758,0000;5,24427
759,0000;5,24192
760,0000;5,65405
761,0000;5,80002
762,0000;5,79415
763,0000;6,40626
764,0000;6,59528
765,0000;6,95178
766,0000;6,60295
767,0000;6,49935
768,0000;6,56147
769,0000;6,70844
770,0000;6,38852
771,0000;7,52482
772,0000;6,03024
773,0000;6,30894
774,0000;6,06806
775,0000;7,37814
776,0000;7,06733
777,0000;7,25927
778,0000;6,32122
779,0000;6,71809
780,0000;6,97304
781,0000;6,30169
782,0000;6,20992
783,0000;6,81212
784,0000;5,19464
785,0000;5,71206
786,0000;4,30898
787,0000;3,872
788,0000;3,19162
789,0000;2,81893
790,0000;2,3361
791,0000;1,13816
792,0000;0,206036
793,0000;-0,257955
794,0000;-2,18509
795,0000;-2,92058
796,0000;-3,49088
797,0000;-5,44821
798,0000;-6,67293
799,0000;-7,37065
800,0000;-8,41041
801,0000;-54,5569
802,0000;-55,931
803,0000;-57,4579
804,0000;-58,17
805,0000;-59,2311
806,0000;-61,0709
807,0000;-62,4473
808,0000;-63,5041
809,0000;-64,8787
810,0000;-66,962
811,0000;-67,8534
812,0000;-69,459
813,0000;-70,7771
814,0000;-71,9396
815,0000;-73,3274
816,0000;-75,5349
817,0000;-76,7838
818,0000;-78,2755
819,0000;-79,6536
820,0000;-81,1938
821,0000;-82,7278
822,0000;-83,7732
823,0000;-84,7841
824,0000;-86,1092
825,0000;-87,3123
826,0000;-88,6345
827,0000;-91,104
828,0000;-91,2391
829,0000;-94,356
830,0000;-95,5077
831,0000;-97,6883
832,0000;-99,7553
833,0000;-101,508
834,0000;-103,476
835,0000;-105,018
836,0000;-107,031
837,0000;-108,516
838,0000;-110,745
839,0000;-112,383
840,0000;-114,824
841,0000;-116,854
842,0000;-118,218
843,0000;-119,973
844,0000;-122,166
845,0000;-124,494
846,0000;-125,983
847,0000;-128,861
848,0000;-129,429
849,0000;-132,618
850,0000;-132,932
851,0000;-134,454
852,0000;-137,649
853,0000;-139,737
854,0000;-140,747
855,0000;-144,354
856,0000;-144,852
857,0000;-147,21
858,0000;-148,046
859,0000;-152,256
860,0000;-152,208
861,0000;-154,321
862,0000;-155,483
863,0000;-157,877
864,0000;-159,324
865,0000;-161,19
866,0000;-161,544
867,0000;-163,821
868,0000;-166,452
869,0000;-167,267
870,0000;-169,651
871,0000;-171,248
872,0000;-171,595
873,0000;-174,966
874,0000;-178,904
875,0000;-178,675
876,0000;-180,276
877,0000;-182,165
878,0000;-183,942
879,0000;-186,706
880,0000;-186,913
881,0000;-188,473
882,0000;-190,86
883,0000;-191,971
884,0000;-193,122
885,0000;-193,177
886,0000;-196,324
887,0000;-196,619
888,0000;-199,905
889,0000;-201,245
890,0000;-203,541
891,0000;-206,038
892,0000;-205,796
893,0000;-207,973
894,0000;-208,569
895,0000;-212,648
896,0000;-215,401
897,0000;-220,163
898,0000;-224,678
899,0000;-231,67
900,0000;-232,906

##### Extended Information
[Comments]
Sample name;TDBC_NaOH_c0_1mmK_em
Comment
User
Division
Company;Microsoft

[Detailed Information]
Creation date;18.03.2014 14:57

Data array type;Linear data array
Horizontal axis;Wavelength [nm]
Vertical axis;Int.
Start;570 nm
End;900 nm
Data interval;1 nm
Data points;331     

[Measurement Information]
Model name;FP-8600
Serial No.;C003561454
  Ex filter holder;None
  Em filter holder;None

Accessory;SCE-846
Accessory S/N;C002561454

Accessory;FDP-837
Accessory S/N;
  Polarizer;Ex 0 degree, Em 0 degree

Measurement date;18.03.2014 14:57

Mode;Emission
Ex bandwidth;5 nm
Em bandwidth;5 nm
Response;0.5 sec
Sensitivity;Low
Measurement range;570 - 900 nm
Data interval;1 nm
Ex wavelength;560.0 nm
Scan speed;100 nm/min
Auto gain;Off
Shutter control;Open only for measurement
Light source;Xe lamp
Filter;Stop scan for exchanging filter
Blank correction;Off
Spectral correction;On
Ex correction data;Ex-PL-Wlamp-P0deg_5nm
Em correction data;Em_Hal-lamp_P0deg_5nm

